 ***x   Q2   Theta   Eprime   Sig_Born   Sig_Rad
  0.149138048       2.14125848       15.0717001       2.93899989       155.722076       189.524536    
  0.151112020       2.16960001       15.1716995       2.93899989       151.687225       184.133804    
  0.153098792       2.19812512       15.2716999       2.93899989       147.763565       178.918228    
  0.155098274       2.22683287       15.3717003       2.93899989       143.946869       173.853867    
  0.157110438       2.25572276       15.4716997       2.93899989       140.233597       168.932983    
  0.159135431       2.28479648       15.5717001       2.93899989       136.620453       164.169952    
  0.161173105       2.31405258       15.6716995       2.93899989       133.103867       159.553665    
  0.163223490       2.34349108       15.7716999       2.93899989       129.680374       155.067230    
  0.165286601       2.37311244       15.8717003       2.93899989       126.347473       150.717468    
  0.167362362       2.40291524       15.9716997       2.93899989       123.102089       146.495010    
  0.169450849       2.43290091       16.0716991       2.93899989       119.941010       142.397446    
  0.171552077       2.46306920       16.1716995       2.93899989       116.862175       138.419220    
  0.173665926       2.49341893       16.2716999       2.93899989       113.862938       134.559113    
  0.175792485       2.52395129       16.3717003       2.93899989       110.940331       130.807434    
  0.177931711       2.55466533       16.4717007       2.93899989       108.092789       127.207413    
  0.180083588       2.58556104       16.5716991       2.93899989       105.317955       123.667900    
  0.182248116       2.61663842       16.6716995       2.93899989       102.613083       120.185234    
  0.184425309       2.64789748       16.7716999       2.93899989       99.9768906       116.843964    
  0.186615109       2.67933774       16.8717003       2.93899989       97.4072800       113.596748    
  0.188817665       2.71096110       16.9717007       2.93899989       94.9018326       110.441399    
  0.191032723       2.74276376       17.0716991       2.93899989       92.4595337       107.375175    
  0.193260476       2.77474904       17.1716995       2.93899989       90.0782928       104.394493    
  0.195500821       2.80691481       17.2716999       2.93899989       87.7561417       101.511292    
  0.197753802       2.83926201       17.3717003       2.93899989       85.4921036       98.6801529    
  0.200019404       2.87179065       17.4717007       2.93899989       83.2877655       95.9439621    
  0.202297509       2.90449882       17.5716991       2.93899989       81.1387329       93.2837830    
  0.204588294       2.93738866       17.6716995       2.93899989       79.0434723       90.6974869    
  0.206891611       2.97045875       17.7716999       2.93899989       77.0003128       88.1825409    
  0.209207535       3.00370979       17.8717003       2.93899989       75.0080109       85.7497711    
  0.211536050       3.03714156       17.9717007       2.93899989       73.0654678       83.3696060    
  0.213877067       3.07075286       18.0716991       2.93899989       71.1710739       81.0548248    
  0.216230661       3.10454488       18.1716995       2.93899989       69.3238297       78.8037872    
  0.218596816       3.13851714       18.2716999       2.93899989       67.5227356       76.6146317    
  0.220975548       3.17266989       18.3717003       2.93899989       65.7660828       74.4854889    
  0.223366752       3.20700169       18.4717007       2.93899989       64.0533218       72.4144211    
  0.225770459       3.24151301       18.5716991       2.93899989       62.3832817       70.4005356    
  0.228186771       3.27620530       18.6716995       2.93899989       60.7545738       68.4417038    
  0.230615586       3.31107712       18.7716999       2.93899989       59.1666527       66.5364456    
  0.233056903       3.34612846       18.8717003       2.93899989       57.6181755       64.6832275    
  0.235510647       3.38135815       18.9717007       2.93899989       56.1083031       62.8790779    
  0.237976894       3.41676760       19.0716991       2.93899989       54.6363487       61.1258430    
  0.240455687       3.45235705       19.1716995       2.93899989       53.2008362       59.4198685    
  0.242946878       3.48812461       19.2716999       2.93899989       51.8013916       57.7605247    
  0.245450586       3.52407169       19.3717003       2.93899989       50.4370232       56.1466293    
  0.247966766       3.56019783       19.4717007       2.93899989       49.1066475       54.5755310    
  0.250495344       3.59650207       19.5716991       2.93899989       47.8098755       53.0476074    
  0.253036410       3.63298535       19.6716995       2.93899989       46.5454865       51.5612640    
  0.255589932       3.66964769       19.7716999       2.93899989       45.3129082       50.1153221    
  0.258155853       3.70648837       19.8717003       2.93899989       44.1114998       48.7088737    
  0.260734200       3.74350715       19.9717007       2.93899989       42.9400940       47.3404770    
  0.263324916       3.78070331       20.0716991       2.93899989       41.7984695       46.0095711    
  0.149489462       2.14490128       15.0717001       2.94400001       155.589401       189.217407    
  0.151468098       2.17329121       15.1716995       2.94400001       151.554565       183.832108    
  0.153459549       2.20186472       15.2716999       2.94400001       147.630981       178.621674    
  0.155463740       2.23062134       15.3717003       2.94400001       143.814072       173.562057    
  0.157480642       2.25956035       15.4716997       2.94400001       140.100861       168.645950    
  0.159510404       2.28868365       15.5717001       2.94400001       136.487762       163.887360    
  0.161552876       2.31798935       15.6716995       2.94400001       132.970963       159.274933    
  0.163608089       2.34747791       15.7716999       2.94400001       129.547562       154.793594    
  0.165676057       2.37714958       15.8717003       2.94400001       126.214775       150.448181    
  0.167756721       2.40700316       15.9716997       2.94400001       122.969208       146.229950    
  0.169850141       2.43703985       16.0716991       2.94400001       119.808281       142.136261    
  0.171956316       2.46725965       16.1716995       2.94400001       116.729614       138.162338    
  0.174075127       2.49766088       16.2716999       2.94400001       113.730255       134.305862    
  0.176206723       2.52824521       16.3717003       2.94400001       110.807899       130.557953    
  0.178350970       2.55901146       16.4717007       2.94400001       107.960609       126.962013    
  0.180507943       2.58995986       16.5716991       2.94400001       105.185745       123.425575    
  0.182677552       2.62108994       16.6716995       2.94400001       102.481201       119.946487    
  0.184859872       2.65240216       16.7716999       2.94400001       99.8453751       116.607979    
  0.187054843       2.68389606       16.8717003       2.94400001       97.2758179       113.365028    
  0.189262584       2.71557307       16.9717007       2.94400001       94.7708054       110.213036    
  0.191482842       2.74742985       17.0716991       2.94400001       92.3289719       107.150131    
  0.193715855       2.77946949       17.1716995       2.94400001       89.9478989       104.187019    
  0.195961475       2.81169009       17.2716999       2.94400001       87.6262894       101.278244    
  0.198219761       2.84409237       17.3717003       2.94400001       85.3635864       98.4653015    
  0.200490713       2.87667632       17.4717007       2.94400001       83.1600342       95.7322617    
  0.202774197       2.90944004       17.5716991       2.94400001       81.0116882       93.0752945    
  0.205070361       2.94238591       17.6716995       2.94400001       78.9171371       90.4922943    
  0.207379103       2.97551227       17.7716999       2.94400001       76.8745041       87.9803009    
  0.209700495       3.00881982       17.8717003       2.94400001       74.8829651       85.5499039    
  0.212034479       3.04230833       17.9717007       2.94400001       72.9411545       83.1727142    
  0.214381009       3.07597685       18.0716991       2.94400001       71.0474548       80.8608475    
  0.216740176       3.10982633       18.1716995       2.94400001       69.2010880       78.6126556    
  0.219111919       3.14385653       18.2716999       2.94400001       67.4006805       76.4264145    
  0.221496224       3.17806721       18.3717003       2.94400001       65.6449432       74.2998352    
  0.223893076       3.21245742       18.4717007       2.94400001       63.9331551       72.2320099    
  0.226302460       3.24702764       18.5716991       2.94400001       62.2638702       70.2208862    
  0.228724465       3.28177905       18.6716995       2.94400001       60.6361847       68.2648010    
  0.231158972       3.31671000       18.7716999       2.94400001       59.0492935       66.3623734    
  0.233606040       3.35182095       18.8717003       2.94400001       57.5016670       64.5100555    
  0.236065581       3.38711071       18.9717007       2.94400001       55.9928703       62.7104340    
  0.238537654       3.42258048       19.0716991       2.94400001       54.5218544       60.9596214    
  0.241022274       3.45823026       19.1716995       2.94400001       53.0874214       59.2561493    
  0.243519351       3.49405885       19.2716999       2.94400001       51.6891174       57.5995140    
  0.246028945       3.53006697       19.3717003       2.94400001       50.3256874       55.9874992    
  0.248551056       3.56625462       19.4717007       2.94400001       48.9964943       54.4194679    
  0.251085609       3.60262084       19.5716991       2.94400001       47.7008820       52.8941689    
  0.253632635       3.63916588       19.6716995       2.94400001       46.4375153       51.4101028    
  0.256192178       3.67589068       19.7716999       2.94400001       45.2061539       49.9666519    
  0.258764148       3.71279407       19.8717003       2.94400001       44.0057678       48.5625648    
  0.261348575       3.74987578       19.9717007       2.94400001       42.8356056       47.1965904    
  0.263945371       3.78713512       20.0716991       2.94400001       41.6952324       45.8680305    
  0.149841323       2.14854407       15.0717001       2.94899988       155.456802       188.911301    
  0.151824623       2.17698216       15.1716995       2.94899988       151.422028       183.531418    
  0.153820753       2.20560431       15.2716999       2.94899988       147.498245       178.326050    
  0.155829653       2.23440957       15.3717003       2.94899988       143.681335       173.270935    
  0.157851338       2.26339793       15.4716997       2.94899988       139.968170       168.359863    
  0.159885868       2.29257059       15.5717001       2.94899988       136.355026       163.605728    
  0.161933139       2.32192612       15.6716995       2.94899988       132.838104       158.997009    
  0.163993195       2.35146475       15.7716999       2.94899988       129.414780       154.520401    
  0.166066036       2.38118696       15.8717003       2.94899988       126.082115       150.179550    
  0.168151587       2.41109109       15.9716997       2.94899988       122.836349       145.965317    
  0.170249924       2.44117880       16.0716991       2.94899988       119.675575       141.875671    
  0.172361061       2.47144985       16.1716995       2.94899988       116.597092       137.905991    
  0.174484879       2.50190282       16.2716999       2.94899988       113.597610       134.053040    
  0.176621467       2.53253913       16.3717003       2.94899988       110.675491       130.353561    
  0.178770781       2.56335759       16.4717007       2.94899988       107.828461       126.717216    
  0.180932805       2.59435844       16.5716991       2.94899988       105.053574       123.140076    
  0.183107540       2.62554145       16.6716995       2.94899988       102.349358       119.708313    
  0.185294986       2.65690684       16.7716999       2.94899988       99.7138901       116.373688    
  0.187495127       2.68845415       16.8717003       2.94899988       97.1443939       113.133682    
  0.189708054       2.72018504       16.9717007       2.94899988       94.6398239       109.985405    
  0.191933542       2.75209594       17.0716991       2.94899988       92.1984253       106.925591    
  0.194171831       2.78419018       17.1716995       2.94899988       89.8175507       103.965813    
  0.196422741       2.81646538       17.2716999       2.94899988       87.4964828       101.060181    
  0.198686332       2.84892273       17.3717003       2.94899988       85.2354126       98.2512054    
  0.200962633       2.88156199       17.4717007       2.94899988       83.0323639       95.5213089    
  0.203251481       2.91438150       17.5716991       2.94899988       80.8847046       92.8674164    
  0.205553055       2.94738317       17.6716995       2.94899988       78.7906723       90.2873611    
  0.207867235       2.98056579       17.7716999       2.94899988       76.7487564       87.7922745    
  0.210194096       3.01393008       17.8717003       2.94899988       74.7580032       85.3504791    
  0.212533578       3.04747534       17.9717007       2.94899988       72.8167801       82.9761581    
  0.214885637       3.08120108       18.0716991       2.94899988       70.9239273       80.6673584    
  0.217250332       3.11510801       18.1716995       2.94899988       69.0784378       78.4221954    
  0.219627663       3.14919615       18.2716999       2.94899988       67.2787018       76.2387695    
  0.222017586       3.18346477       18.3717003       2.94899988       65.5239105       74.1149521    
  0.224420071       3.21791339       18.4717007       2.94899988       63.8130684       72.0501328    
  0.226835117       3.25254226       18.5716991       2.94899988       62.1445656       70.0416336    
  0.229262814       3.28735256       18.6716995       2.94899988       60.5179062       68.0883560    
  0.231703088       3.32234311       18.7716999       2.94899988       58.9318504       66.1886139    
  0.234155908       3.35751367       18.8717003       2.94899988       57.3852730       64.3391266    
  0.236621231       3.39286327       18.9717007       2.94899988       55.8775673       62.5421753    
  0.239099115       3.42839313       19.0716991       2.94899988       54.4074326       60.7937737    
  0.241589591       3.46410370       19.1716995       2.94899988       52.9741364       59.0954666    
  0.244092554       3.49999309       19.2716999       2.94899988       51.5769463       57.4391594    
  0.246608049       3.53606224       19.3717003       2.94899988       50.2144966       55.8292885    
  0.249136090       3.57231140       19.4717007       2.94899988       48.8864899       54.2636414    
  0.251676619       3.60873938       19.5716991       2.94899988       47.5918465       52.7408142    
  0.254229635       3.64534664       19.6716995       2.94899988       46.3296890       51.2592812    
  0.256795198       3.68213367       19.7716999       2.94899988       45.0995598       49.8183708    
  0.259373248       3.71909976       19.8717003       2.94899988       43.9001808       48.4166527    
  0.261963755       3.75624442       19.9717007       2.94899988       42.7312698       47.0530319    
  0.264566660       3.79356718       20.0716991       2.94899988       41.5919571       45.7267609    
  0.150193661       2.15218687       15.0717001       2.95400000       155.324249       188.605530    
  0.152181610       2.18067312       15.1716995       2.95400000       151.289536       183.240662    
  0.154182449       2.20934391       15.2716999       2.95400000       147.365494       178.031387    
  0.156196073       2.23819804       15.3717003       2.95400000       143.548630       172.970856    
  0.158222511       2.26723552       15.4716997       2.95400000       139.835510       168.074051    
  0.160261810       2.29645753       15.5717001       2.95400000       136.222122       163.328781    
  0.162313908       2.32586288       15.6716995       2.95400000       132.705261       158.718353    
  0.164378807       2.35545158       15.7716999       2.95400000       129.282059       154.248627    
  0.166456521       2.38522410       15.8717003       2.95400000       125.949150       149.911041    
  0.168546975       2.41517901       15.9716997       2.95400000       122.703522       145.701569    
  0.170650244       2.44531775       16.0716991       2.95400000       119.542908       141.616135    
  0.172766358       2.47564030       16.1716995       2.95400000       116.464310       137.652603    
  0.174895152       2.50614476       16.2716999       2.95400000       113.464996       133.800797    
  0.177036777       2.53683305       16.3717003       2.95400000       110.543121       130.105743    
  0.179191142       2.56770372       16.4717007       2.95400000       107.696075       126.472878    
  0.181358263       2.59875727       16.5716991       2.95400000       104.921417       122.898773    
  0.183538094       2.62999296       16.6716995       2.95400000       102.217545       119.470703    
  0.185730681       2.66141152       16.7716999       2.95400000       99.5821228       116.139359    
  0.187936008       2.69301248       16.8717003       2.95400000       97.0130005       112.902908    
  0.190154165       2.72479725       16.9717007       2.95400000       94.5088730       109.757980    
  0.192384869       2.75676203       17.0716991       2.95400000       92.0675812       106.701454    
  0.194628417       2.78891063       17.1716995       2.95400000       89.6872253       103.743813    
  0.196884602       2.82124066       17.2716999       2.95400000       87.3666992       100.842705    
  0.199153528       2.85375285       17.3717003       2.95400000       85.1071320       98.0374985    
  0.201435179       2.88644767       17.4717007       2.95400000       82.9047546       95.3108139    
  0.203729406       2.91932273       17.5716991       2.95400000       80.7577667       92.6601944    
  0.206036389       2.95238042       17.6716995       2.95400000       78.6642380       90.0828323    
  0.208356023       2.98561931       17.7716999       2.95400000       76.6230621       87.5902710    
  0.210688353       3.01904011       17.8717003       2.95400000       74.6331024       85.1515503    
  0.213033319       3.05264235       17.9717007       2.95400000       72.6924667       82.7801285    
  0.215390921       3.08642530       18.0716991       2.95400000       70.8004761       80.4743576    
  0.217761174       3.12038970       18.1716995       2.95400000       68.9557724       78.2320862    
  0.220144093       3.15453553       18.2716999       2.95400000       67.1568146       76.0515213    
  0.222539648       3.18886232       18.3717003       2.95400000       65.4029694       73.9306030    
  0.224947765       3.22336936       18.4717007       2.95400000       63.6928596       71.8684464    
  0.227368504       3.25805688       18.5716991       2.95400000       62.0253677       69.8629684    
  0.229801908       3.29292631       18.6716995       2.95400000       60.3997192       67.9124451    
  0.232247904       3.32797599       18.7716999       2.95400000       58.8144913       66.0153427    
  0.234706506       3.36320639       18.8717003       2.95400000       57.2689781       64.1686096    
  0.237177610       3.39861584       18.9717007       2.95400000       55.7623291       62.3741951    
